# freq 	 sqrt(Sn)
5.000000e+00	1.167984e-22
5.011530e+00	1.135524e-22
5.023087e+00	1.104067e-22
5.034670e+00	1.073577e-22
5.046280e+00	1.044021e-22
5.057917e+00	1.015366e-22
5.069580e+00	9.875799e-23
5.081271e+00	9.606341e-23
5.092988e+00	9.344994e-23
5.104733e+00	9.091482e-23
5.116504e+00	8.845540e-23
5.128303e+00	8.606914e-23
5.140129e+00	8.375359e-23
5.151982e+00	8.150639e-23
5.163862e+00	7.932528e-23
5.175770e+00	7.720808e-23
5.187706e+00	7.515270e-23
5.199669e+00	7.315712e-23
5.211659e+00	7.121940e-23
5.223677e+00	6.933766e-23
5.235723e+00	6.751012e-23
5.247797e+00	6.573502e-23
5.259898e+00	6.401071e-23
5.272028e+00	6.233557e-23
5.284185e+00	6.070805e-23
5.296370e+00	5.912665e-23
5.308584e+00	5.758993e-23
5.320825e+00	5.609650e-23
5.333095e+00	5.464501e-23
5.345393e+00	5.323416e-23
5.357720e+00	5.186270e-23
5.370075e+00	5.052943e-23
5.382458e+00	4.923318e-23
5.394870e+00	4.797283e-23
5.407311e+00	4.674728e-23
5.419780e+00	4.555548e-23
5.432278e+00	4.439642e-23
5.444805e+00	4.326912e-23
5.457361e+00	4.217263e-23
5.469946e+00	4.110603e-23
5.482559e+00	4.006844e-23
5.495202e+00	3.905900e-23
5.507874e+00	3.807688e-23
5.520575e+00	3.712127e-23
5.533306e+00	3.619141e-23
5.546066e+00	3.528655e-23
5.558855e+00	3.440595e-23
5.571674e+00	3.354891e-23
5.584522e+00	3.271476e-23
5.597400e+00	3.190283e-23
5.610308e+00	3.111249e-23
5.623245e+00	3.034311e-23
5.636212e+00	2.959411e-23
5.649209e+00	2.886491e-23
5.662237e+00	2.815493e-23
5.675294e+00	2.746364e-23
5.688381e+00	2.679051e-23
5.701498e+00	2.613503e-23
5.714646e+00	2.549670e-23
5.727824e+00	2.487506e-23
5.741033e+00	2.426962e-23
5.754271e+00	2.367994e-23
5.767541e+00	2.310559e-23
5.780841e+00	2.254613e-23
5.794172e+00	2.200117e-23
5.807533e+00	2.147029e-23
5.820925e+00	2.095312e-23
5.834348e+00	2.044927e-23
5.847802e+00	1.995839e-23
5.861287e+00	1.948011e-23
5.874803e+00	1.901411e-23
5.888351e+00	1.856004e-23
5.901929e+00	1.811759e-23
5.915539e+00	1.768643e-23
5.929181e+00	1.726627e-23
5.942853e+00	1.685680e-23
5.956558e+00	1.645776e-23
5.970294e+00	1.606884e-23
5.984061e+00	1.568979e-23
5.997860e+00	1.532034e-23
6.011691e+00	1.496024e-23
6.025554e+00	1.460924e-23
6.039449e+00	1.426710e-23
6.053376e+00	1.393358e-23
6.067336e+00	1.360845e-23
6.081327e+00	1.329151e-23
6.095351e+00	1.298253e-23
6.109406e+00	1.268130e-23
6.123495e+00	1.238762e-23
6.137615e+00	1.210130e-23
6.151769e+00	1.182214e-23
6.165955e+00	1.154996e-23
6.180174e+00	1.128458e-23
6.194425e+00	1.102581e-23
6.208710e+00	1.077350e-23
6.223027e+00	1.052747e-23
6.237377e+00	1.028757e-23
6.251761e+00	1.005362e-23
6.266177e+00	9.825496e-24
6.280627e+00	9.603032e-24
6.295110e+00	9.386087e-24
6.309627e+00	9.174521e-24
6.324177e+00	8.968198e-24
6.338761e+00	8.766984e-24
6.353378e+00	8.570749e-24
6.368029e+00	8.379368e-24
6.382714e+00	8.192719e-24
6.397432e+00	8.010682e-24
6.412185e+00	7.833141e-24
6.426971e+00	7.659982e-24
6.441792e+00	7.491098e-24
6.456647e+00	7.326379e-24
6.471536e+00	7.165723e-24
6.486459e+00	7.009027e-24
6.501417e+00	6.856194e-24
6.516409e+00	6.707127e-24
6.531436e+00	6.561732e-24
6.546498e+00	6.419919e-24
6.561594e+00	6.281599e-24
6.576725e+00	6.146685e-24
6.591891e+00	6.015094e-24
6.607092e+00	5.886743e-24
6.622328e+00	5.761553e-24
6.637599e+00	5.639446e-24
6.652906e+00	5.520347e-24
6.668247e+00	5.404181e-24
6.683624e+00	5.290878e-24
6.699037e+00	5.180366e-24
6.714485e+00	5.072578e-24
6.729968e+00	4.967446e-24
6.745488e+00	4.864908e-24
6.761043e+00	4.764899e-24
6.776634e+00	4.667357e-24
6.792261e+00	4.572224e-24
6.807924e+00	4.479439e-24
6.823623e+00	4.388948e-24
6.839358e+00	4.300693e-24
6.855130e+00	4.214620e-24
6.870938e+00	4.130677e-24
6.886782e+00	4.048813e-24
6.902663e+00	3.968976e-24
6.918581e+00	3.891119e-24
6.934535e+00	3.815193e-24
6.950526e+00	3.741151e-24
6.966554e+00	3.668948e-24
6.982619e+00	3.598540e-24
6.998721e+00	3.529882e-24
7.014860e+00	3.462934e-24
7.031036e+00	3.397653e-24
7.047250e+00	3.334000e-24
7.063501e+00	3.271935e-24
7.079790e+00	3.211419e-24
7.096116e+00	3.152415e-24
7.112479e+00	3.094886e-24
7.128881e+00	3.038797e-24
7.145320e+00	2.984113e-24
7.161797e+00	2.930799e-24
7.178312e+00	2.878822e-24
7.194866e+00	2.828150e-24
7.211457e+00	2.778751e-24
7.228087e+00	2.730594e-24
7.244755e+00	2.683647e-24
7.261461e+00	2.637883e-24
7.278206e+00	2.593270e-24
7.294990e+00	2.549782e-24
7.311812e+00	2.507390e-24
7.328673e+00	2.466068e-24
7.345573e+00	2.425788e-24
7.362512e+00	2.386525e-24
7.379490e+00	2.348253e-24
7.396507e+00	2.310948e-24
7.413564e+00	2.274586e-24
7.430659e+00	2.239141e-24
7.447795e+00	2.204593e-24
7.464969e+00	2.170917e-24
7.482183e+00	2.138091e-24
7.499437e+00	2.106095e-24
7.516731e+00	2.074905e-24
7.534065e+00	2.044503e-24
7.551438e+00	2.014867e-24
7.568852e+00	1.985978e-24
7.586306e+00	1.957816e-24
7.603800e+00	1.930361e-24
7.621334e+00	1.903597e-24
7.638909e+00	1.877503e-24
7.656525e+00	1.852063e-24
7.674181e+00	1.827259e-24
7.691878e+00	1.803074e-24
7.709615e+00	1.779492e-24
7.727393e+00	1.756495e-24
7.745213e+00	1.734069e-24
7.763073e+00	1.712198e-24
7.780975e+00	1.690866e-24
7.798918e+00	1.670059e-24
7.816903e+00	1.649761e-24
7.834928e+00	1.629960e-24
7.852996e+00	1.610641e-24
7.871105e+00	1.591790e-24
7.889256e+00	1.573395e-24
7.907448e+00	1.555441e-24
7.925683e+00	1.537918e-24
7.943960e+00	1.520812e-24
7.962278e+00	1.504112e-24
7.980639e+00	1.487805e-24
7.999043e+00	1.471881e-24
8.017489e+00	1.456327e-24
8.035977e+00	1.441134e-24
8.054508e+00	1.426291e-24
8.073082e+00	1.411787e-24
8.091698e+00	1.397612e-24
8.110358e+00	1.383756e-24
8.129061e+00	1.370210e-24
8.147806e+00	1.356965e-24
8.166595e+00	1.344011e-24
8.185427e+00	1.331339e-24
8.204303e+00	1.318942e-24
8.223222e+00	1.306810e-24
8.242185e+00	1.294935e-24
8.261192e+00	1.283310e-24
8.280242e+00	1.271926e-24
8.299336e+00	1.260776e-24
8.318475e+00	1.249854e-24
8.337657e+00	1.239151e-24
8.356884e+00	1.228661e-24
8.376155e+00	1.218377e-24
8.395470e+00	1.208292e-24
8.414830e+00	1.198401e-24
8.434235e+00	1.188697e-24
8.453684e+00	1.179174e-24
8.473179e+00	1.169827e-24
8.492718e+00	1.160649e-24
8.512302e+00	1.151636e-24
8.531932e+00	1.142782e-24
8.551606e+00	1.134081e-24
8.571326e+00	1.125530e-24
8.591092e+00	1.117122e-24
8.610903e+00	1.108854e-24
8.630760e+00	1.100720e-24
8.650662e+00	1.092717e-24
8.670611e+00	1.084840e-24
8.690605e+00	1.077085e-24
8.710646e+00	1.069448e-24
8.730733e+00	1.061926e-24
8.750866e+00	1.054513e-24
8.771045e+00	1.047208e-24
8.791272e+00	1.040005e-24
8.811544e+00	1.032902e-24
8.831864e+00	1.025897e-24
8.852230e+00	1.018984e-24
8.872644e+00	1.012161e-24
8.893104e+00	1.005426e-24
8.913611e+00	9.987755e-25
8.934166e+00	9.922064e-25
8.954769e+00	9.857163e-25
8.975418e+00	9.793025e-25
8.996116e+00	9.729626e-25
9.016861e+00	9.666941e-25
9.037654e+00	9.604946e-25
9.058495e+00	9.543620e-25
9.079384e+00	9.482940e-25
9.100321e+00	9.422886e-25
9.121306e+00	9.363437e-25
9.142340e+00	9.304573e-25
9.163422e+00	9.246276e-25
9.184553e+00	9.188527e-25
9.205733e+00	9.131310e-25
9.226961e+00	9.074607e-25
9.248239e+00	9.018402e-25
9.269565e+00	8.962679e-25
9.290941e+00	8.907424e-25
9.312366e+00	8.852622e-25
9.333840e+00	8.798259e-25
9.355364e+00	8.744322e-25
9.376938e+00	8.690798e-25
9.398561e+00	8.637674e-25
9.420234e+00	8.584940e-25
9.441957e+00	8.532583e-25
9.463731e+00	8.480593e-25
9.485554e+00	8.428960e-25
9.507428e+00	8.377673e-25
9.529352e+00	8.326724e-25
9.551327e+00	8.276102e-25
9.573352e+00	8.225800e-25
9.595428e+00	8.175810e-25
9.617555e+00	8.126123e-25
9.639734e+00	8.076732e-25
9.661963e+00	8.027630e-25
9.684243e+00	7.978810e-25
9.706575e+00	7.930266e-25
9.728959e+00	7.881991e-25
9.751394e+00	7.833981e-25
9.773881e+00	7.786230e-25
9.796419e+00	7.738732e-25
9.819010e+00	7.691483e-25
9.841653e+00	7.644478e-25
9.864348e+00	7.597713e-25
9.887095e+00	7.551185e-25
9.909895e+00	7.504889e-25
9.932747e+00	7.458822e-25
9.955652e+00	7.412981e-25
9.978610e+00	7.367363e-25
1.000162e+01	7.321966e-25
1.002468e+01	7.276789e-25
1.004780e+01	7.231831e-25
1.007097e+01	7.187089e-25
1.009419e+01	7.142563e-25
1.011747e+01	7.098249e-25
1.014080e+01	7.054146e-25
1.016419e+01	7.010253e-25
1.018763e+01	6.966568e-25
1.021112e+01	6.923090e-25
1.023467e+01	6.879818e-25
1.025827e+01	6.836752e-25
1.028192e+01	6.793890e-25
1.030563e+01	6.751233e-25
1.032940e+01	6.708780e-25
1.035322e+01	6.666530e-25
1.037709e+01	6.624485e-25
1.040102e+01	6.582643e-25
1.042501e+01	6.541006e-25
1.044905e+01	6.499573e-25
1.047314e+01	6.458345e-25
1.049729e+01	6.417323e-25
1.052150e+01	6.376507e-25
1.054576e+01	6.335897e-25
1.057008e+01	6.295496e-25
1.059446e+01	6.255303e-25
1.061889e+01	6.215320e-25
1.064338e+01	6.175547e-25
1.066792e+01	6.135986e-25
1.069252e+01	6.096638e-25
1.071718e+01	6.057504e-25
1.074189e+01	6.018585e-25
1.076666e+01	5.979883e-25
1.079149e+01	5.941399e-25
1.081637e+01	5.903133e-25
1.084132e+01	5.865088e-25
1.086632e+01	5.827265e-25
1.089138e+01	5.789665e-25
1.091649e+01	5.752290e-25
1.094166e+01	5.715140e-25
1.096690e+01	5.678218e-25
1.099218e+01	5.641524e-25
1.101753e+01	5.605061e-25
1.104294e+01	5.568828e-25
1.106841e+01	5.532829e-25
1.109393e+01	5.497063e-25
1.111951e+01	5.461533e-25
1.114515e+01	5.426239e-25
1.117085e+01	5.391183e-25
1.119661e+01	5.356365e-25
1.122243e+01	5.321788e-25
1.124831e+01	5.287452e-25
1.127425e+01	5.253358e-25
1.130025e+01	5.219507e-25
1.132631e+01	5.185900e-25
1.135243e+01	5.152538e-25
1.137861e+01	5.119423e-25
1.140484e+01	5.086554e-25
1.143114e+01	5.053932e-25
1.145750e+01	5.021559e-25
1.148393e+01	4.989435e-25
1.151041e+01	4.957560e-25
1.153695e+01	4.925935e-25
1.156355e+01	4.894560e-25
1.159022e+01	4.863436e-25
1.161695e+01	4.832564e-25
1.164374e+01	4.801943e-25
1.167059e+01	4.771573e-25
1.169750e+01	4.741456e-25
1.172447e+01	4.711590e-25
1.175151e+01	4.681977e-25
1.177861e+01	4.652615e-25
1.180577e+01	4.623505e-25
1.183300e+01	4.594647e-25
1.186028e+01	4.566041e-25
1.188763e+01	4.537686e-25
1.191505e+01	4.509581e-25
1.194252e+01	4.481727e-25
1.197006e+01	4.454123e-25
1.199766e+01	4.426769e-25
1.202533e+01	4.399663e-25
1.205306e+01	4.372806e-25
1.208086e+01	4.346196e-25
1.210872e+01	4.319834e-25
1.213664e+01	4.293717e-25
1.216462e+01	4.267846e-25
1.219268e+01	4.242219e-25
1.222079e+01	4.216835e-25
1.224897e+01	4.191694e-25
1.227722e+01	4.166794e-25
1.230553e+01	4.142135e-25
1.233391e+01	4.117714e-25
1.236235e+01	4.093532e-25
1.239086e+01	4.069586e-25
1.241943e+01	4.045876e-25
1.244807e+01	4.022400e-25
1.247678e+01	3.999157e-25
1.250555e+01	3.976145e-25
1.253439e+01	3.953364e-25
1.256329e+01	3.930811e-25
1.259226e+01	3.908486e-25
1.262130e+01	3.886386e-25
1.265040e+01	3.864510e-25
1.267958e+01	3.842858e-25
1.270881e+01	3.821426e-25
1.273812e+01	3.800213e-25
1.276750e+01	3.779219e-25
1.279694e+01	3.758441e-25
1.282645e+01	3.737877e-25
1.285603e+01	3.717526e-25
1.288567e+01	3.697386e-25
1.291539e+01	3.677457e-25
1.294517e+01	3.657734e-25
1.297502e+01	3.638218e-25
1.300494e+01	3.618906e-25
1.303493e+01	3.599796e-25
1.306499e+01	3.580888e-25
1.309512e+01	3.562178e-25
1.312531e+01	3.543666e-25
1.315558e+01	3.525348e-25
1.318592e+01	3.507225e-25
1.321632e+01	3.489293e-25
1.324680e+01	3.471552e-25
1.327735e+01	3.453998e-25
1.330797e+01	3.436631e-25
1.333865e+01	3.419449e-25
1.336941e+01	3.402449e-25
1.340024e+01	3.385630e-25
1.343115e+01	3.368991e-25
1.346212e+01	3.352529e-25
1.349316e+01	3.336242e-25
1.352428e+01	3.320130e-25
1.355546e+01	3.304189e-25
1.358672e+01	3.288419e-25
1.361805e+01	3.272817e-25
1.364946e+01	3.257382e-25
1.368093e+01	3.242112e-25
1.371248e+01	3.227005e-25
1.374410e+01	3.212060e-25
1.377580e+01	3.197274e-25
1.380756e+01	3.182647e-25
1.383940e+01	3.168175e-25
1.387132e+01	3.153859e-25
1.390330e+01	3.139695e-25
1.393537e+01	3.125683e-25
1.396750e+01	3.111820e-25
1.399971e+01	3.098105e-25
1.403199e+01	3.084537e-25
1.406435e+01	3.071113e-25
1.409678e+01	3.057832e-25
1.412929e+01	3.044693e-25
1.416187e+01	3.031694e-25
1.419453e+01	3.018832e-25
1.422726e+01	3.006108e-25
1.426007e+01	2.993519e-25
1.429296e+01	2.981064e-25
1.432592e+01	2.968740e-25
1.435895e+01	2.956548e-25
1.439206e+01	2.944484e-25
1.442525e+01	2.932549e-25
1.445852e+01	2.920739e-25
1.449186e+01	2.909054e-25
1.452528e+01	2.897493e-25
1.455877e+01	2.886053e-25
1.459234e+01	2.874734e-25
1.462599e+01	2.863534e-25
1.465972e+01	2.852452e-25
1.469353e+01	2.841487e-25
1.472741e+01	2.830636e-25
1.476137e+01	2.819899e-25
1.479541e+01	2.809274e-25
1.482953e+01	2.798761e-25
1.486373e+01	2.788357e-25
1.489800e+01	2.778062e-25
1.493236e+01	2.767874e-25
1.496679e+01	2.757792e-25
1.500131e+01	2.747815e-25
1.503590e+01	2.737942e-25
1.507057e+01	2.728171e-25
1.510532e+01	2.718501e-25
1.514016e+01	2.708931e-25
1.517507e+01	2.699460e-25
1.521007e+01	2.690087e-25
1.524514e+01	2.680811e-25
1.528030e+01	2.671629e-25
1.531553e+01	2.662543e-25
1.535085e+01	2.653549e-25
1.538625e+01	2.644648e-25
1.542173e+01	2.635837e-25
1.545729e+01	2.627117e-25
1.549294e+01	2.618486e-25
1.552866e+01	2.609943e-25
1.556447e+01	2.601487e-25
1.560036e+01	2.593117e-25
1.563634e+01	2.584831e-25
1.567240e+01	2.576630e-25
1.570854e+01	2.568512e-25
1.574476e+01	2.560476e-25
1.578107e+01	2.552521e-25
1.581746e+01	2.544646e-25
1.585393e+01	2.536851e-25
1.589049e+01	2.529134e-25
1.592714e+01	2.521494e-25
1.596387e+01	2.513931e-25
1.600068e+01	2.506444e-25
1.603758e+01	2.499031e-25
1.607456e+01	2.491693e-25
1.611163e+01	2.484427e-25
1.614878e+01	2.477234e-25
1.618602e+01	2.470112e-25
1.622334e+01	2.463061e-25
1.626076e+01	2.456080e-25
1.629825e+01	2.449168e-25
1.633584e+01	2.442324e-25
1.637351e+01	2.435548e-25
1.641127e+01	2.428839e-25
1.644911e+01	2.422195e-25
1.648704e+01	2.415617e-25
1.652506e+01	2.409103e-25
1.656317e+01	2.402653e-25
1.660136e+01	2.396266e-25
1.663965e+01	2.389941e-25
1.667802e+01	2.383678e-25
1.671648e+01	2.377476e-25
1.675502e+01	2.371334e-25
1.679366e+01	2.365252e-25
1.683239e+01	2.359229e-25
1.687120e+01	2.353264e-25
1.691011e+01	2.347356e-25
1.694910e+01	2.341505e-25
1.698819e+01	2.335711e-25
1.702736e+01	2.329973e-25
1.706663e+01	2.324289e-25
1.710598e+01	2.318660e-25
1.714543e+01	2.313085e-25
1.718497e+01	2.307563e-25
1.722460e+01	2.302094e-25
1.726432e+01	2.296676e-25
1.730413e+01	2.291311e-25
1.734403e+01	2.285996e-25
1.738403e+01	2.280731e-25
1.742412e+01	2.275517e-25
1.746429e+01	2.270351e-25
1.750457e+01	2.265234e-25
1.754493e+01	2.260166e-25
1.758539e+01	2.255145e-25
1.762595e+01	2.250171e-25
1.766659e+01	2.245244e-25
1.770733e+01	2.240362e-25
1.774816e+01	2.235527e-25
1.778909e+01	2.230736e-25
1.783011e+01	2.225990e-25
1.787123e+01	2.221288e-25
1.791244e+01	2.216630e-25
1.795375e+01	2.212015e-25
1.799515e+01	2.207442e-25
1.803664e+01	2.202912e-25
1.807824e+01	2.198423e-25
1.811992e+01	2.193976e-25
1.816171e+01	2.189570e-25
1.820359e+01	2.185203e-25
1.824557e+01	2.180877e-25
1.828764e+01	2.176590e-25
1.832981e+01	2.172343e-25
1.837208e+01	2.168134e-25
1.841445e+01	2.163963e-25
1.845691e+01	2.159830e-25
1.849948e+01	2.155735e-25
1.854213e+01	2.151676e-25
1.858489e+01	2.147654e-25
1.862775e+01	2.143669e-25
1.867071e+01	2.139719e-25
1.871376e+01	2.135804e-25
1.875691e+01	2.131925e-25
1.880017e+01	2.128080e-25
1.884352e+01	2.124269e-25
1.888697e+01	2.120493e-25
1.893053e+01	2.116750e-25
1.897418e+01	2.113040e-25
1.901794e+01	2.109363e-25
1.906179e+01	2.105719e-25
1.910575e+01	2.102107e-25
1.914981e+01	2.098526e-25
1.919397e+01	2.094977e-25
1.923823e+01	2.091459e-25
1.928259e+01	2.087972e-25
1.932706e+01	2.084516e-25
1.937163e+01	2.081089e-25
1.941630e+01	2.077693e-25
1.946107e+01	2.074326e-25
1.950595e+01	2.070988e-25
1.955093e+01	2.067679e-25
1.959601e+01	2.064399e-25
1.964120e+01	2.061146e-25
1.968650e+01	2.057922e-25
1.973189e+01	2.054726e-25
1.977739e+01	2.051557e-25
1.982300e+01	2.048415e-25
1.986871e+01	2.045299e-25
1.991453e+01	2.042211e-25
1.996045e+01	2.039148e-25
2.000648e+01	2.036112e-25
2.005262e+01	2.033102e-25
2.009886e+01	2.030116e-25
2.014521e+01	2.027156e-25
2.019166e+01	2.024221e-25
2.023822e+01	2.021311e-25
2.028489e+01	2.018424e-25
2.033167e+01	2.015562e-25
2.037856e+01	2.012724e-25
2.042555e+01	2.009910e-25
2.047265e+01	2.007119e-25
2.051986e+01	2.004351e-25
2.056718e+01	2.001606e-25
2.061461e+01	1.998883e-25
2.066214e+01	1.996184e-25
2.070979e+01	1.993506e-25
2.075755e+01	1.990850e-25
2.080542e+01	1.988216e-25
2.085339e+01	1.985604e-25
2.090148e+01	1.983013e-25
2.094968e+01	1.980442e-25
2.099799e+01	1.977893e-25
2.104641e+01	1.975365e-25
2.109494e+01	1.972856e-25
2.114359e+01	1.970369e-25
2.119235e+01	1.967901e-25
2.124122e+01	1.965452e-25
2.129020e+01	1.963024e-25
2.133929e+01	1.960615e-25
2.138850e+01	1.958225e-25
2.143783e+01	1.955854e-25
2.148726e+01	1.953502e-25
2.153681e+01	1.951169e-25
2.158648e+01	1.948854e-25
2.163625e+01	1.946557e-25
2.168615e+01	1.944279e-25
2.173616e+01	1.942018e-25
2.178628e+01	1.939775e-25
2.183652e+01	1.937550e-25
2.188687e+01	1.935342e-25
2.193735e+01	1.933151e-25
2.198793e+01	1.930977e-25
2.203864e+01	1.928820e-25
2.208946e+01	1.926679e-25
2.214040e+01	1.924555e-25
2.219145e+01	1.922448e-25
2.224263e+01	1.920356e-25
2.229392e+01	1.918281e-25
2.234533e+01	1.916222e-25
2.239686e+01	1.914178e-25
2.244850e+01	1.912150e-25
2.250027e+01	1.910137e-25
2.255216e+01	1.908139e-25
2.260416e+01	1.906157e-25
2.265629e+01	1.904189e-25
2.270853e+01	1.902236e-25
2.276090e+01	1.900298e-25
2.281339e+01	1.898374e-25
2.286599e+01	1.896465e-25
2.291872e+01	1.894570e-25
2.297157e+01	1.892689e-25
2.302455e+01	1.890822e-25
2.307764e+01	1.888968e-25
2.313086e+01	1.887129e-25
2.318420e+01	1.885303e-25
2.323766e+01	1.883490e-25
2.329125e+01	1.881691e-25
2.334496e+01	1.879904e-25
2.339879e+01	1.878131e-25
2.345275e+01	1.876371e-25
2.350683e+01	1.874623e-25
2.356104e+01	1.872888e-25
2.361537e+01	1.871166e-25
2.366983e+01	1.869456e-25
2.372441e+01	1.867758e-25
2.377912e+01	1.866073e-25
2.383395e+01	1.864399e-25
2.388891e+01	1.862738e-25
2.394400e+01	1.861088e-25
2.399922e+01	1.859450e-25
2.405456e+01	1.857824e-25
2.411003e+01	1.856209e-25
2.416563e+01	1.854606e-25
2.422135e+01	1.853013e-25
2.427721e+01	1.851432e-25
2.433319e+01	1.849862e-25
2.438930e+01	1.848303e-25
2.444555e+01	1.846755e-25
2.450192e+01	1.845218e-25
2.455842e+01	1.843691e-25
2.461505e+01	1.842175e-25
2.467181e+01	1.840669e-25
2.472871e+01	1.839174e-25
2.478573e+01	1.837689e-25
2.484289e+01	1.836214e-25
2.490018e+01	1.834749e-25
2.495760e+01	1.833294e-25
2.501515e+01	1.831849e-25
2.507283e+01	1.830414e-25
2.513065e+01	1.828989e-25
2.518860e+01	1.827573e-25
2.524669e+01	1.826166e-25
2.530491e+01	1.824770e-25
2.536326e+01	1.823382e-25
2.542175e+01	1.822004e-25
2.548037e+01	1.820635e-25
2.553913e+01	1.819275e-25
2.559802e+01	1.817924e-25
2.565705e+01	1.816583e-25
2.571622e+01	1.815250e-25
2.577552e+01	1.813925e-25
2.583496e+01	1.812610e-25
2.589453e+01	1.811303e-25
2.595425e+01	1.810005e-25
2.601410e+01	1.808715e-25
2.607409e+01	1.807433e-25
2.613421e+01	1.806160e-25
2.619448e+01	1.804896e-25
2.625488e+01	1.803639e-25
2.631543e+01	1.802390e-25
2.637611e+01	1.801150e-25
2.643693e+01	1.799917e-25
2.649790e+01	1.798693e-25
2.655900e+01	1.797476e-25
2.662025e+01	1.796267e-25
2.668163e+01	1.795066e-25
2.674316e+01	1.793872e-25
2.680483e+01	1.792686e-25
2.686664e+01	1.791507e-25
2.692860e+01	1.790336e-25
2.699070e+01	1.789172e-25
2.705294e+01	1.788015e-25
2.711532e+01	1.786866e-25
2.717785e+01	1.785724e-25
2.724052e+01	1.784589e-25
2.730334e+01	1.783461e-25
2.736630e+01	1.782340e-25
2.742941e+01	1.781226e-25
2.749266e+01	1.780119e-25
2.755606e+01	1.779019e-25
2.761960e+01	1.777925e-25
2.768329e+01	1.776838e-25
2.774713e+01	1.775758e-25
2.781112e+01	1.774684e-25
2.787525e+01	1.773617e-25
2.793953e+01	1.772557e-25
2.800396e+01	1.771503e-25
2.806854e+01	1.770455e-25
2.813326e+01	1.769414e-25
2.819814e+01	1.768378e-25
2.826316e+01	1.767350e-25
2.832834e+01	1.766327e-25
2.839366e+01	1.765310e-25
2.845914e+01	1.764300e-25
2.852477e+01	1.763295e-25
2.859054e+01	1.762297e-25
2.865647e+01	1.761304e-25
2.872256e+01	1.760317e-25
2.878879e+01	1.759336e-25
2.885518e+01	1.758361e-25
2.892172e+01	1.757392e-25
2.898841e+01	1.756428e-25
2.905526e+01	1.755470e-25
2.912226e+01	1.754518e-25
2.918942e+01	1.753571e-25
2.925673e+01	1.752629e-25
